Optical absorption constant of Cu2ZnSnS4 (CZTS)
Data digitised from Fig. 3b of Feng Jiang, Appl. Phys. Express 4 (2011) 074101, 
"Preparation and Properties of Cu2ZnSnS4 Absorber and Cu2ZnSnS4/Amorphous Silicon Thin-Film Solar Cell"
Data digitised and put in the format of a SCAPS absorption file by Samira Khelifi, ELIS, UGent
> lambda (nm)	alpha (1/m)	
196.00	7.61960E+06
219.31	8.04970E+06
242.62	8.80730E+06
265.93	9.32890E+06
289.24	9.32940E+06
312.55	8.93840E+06
335.85	8.49200E+06
359.16	8.16850E+06
382.47	8.02050E+06
405.78	8.02950E+06
429.09	8.03850E+06
452.40	7.99070E+06
475.71	7.89890E+06
499.01	7.76260E+06
522.32	7.57460E+06
545.63	7.34910E+06
568.94	7.04270E+06
592.25	6.75760E+06
615.56	6.47610E+06
638.87	6.10520E+06
662.17	5.68980E+06
685.48	5.20420E+06
708.79	4.60750E+06
732.10	3.85960E+06
755.41	3.07460E+06
778.72	2.40090E+06
802.03	1.89950E+06
825.34	1.54400E+06
848.64	1.25130E+06
871.95	1.03430E+06
895.26	8.98600E+05
918.57	8.01100E+05
941.88	7.58900E+05
965.19	6.95600E+05
988.50	6.53700E+05
1011.80	6.54000E+05
1035.11	6.54400E+05
1058.42	6.12300E+05
1081.73	6.12800E+05
1105.04	5.99100E+05
1128.35	5.79600E+05
1151.66	5.71500E+05
1174.96	5.29600E+05
1198.27	5.29900E+05
1221.58	5.30300E+05
1244.89	5.09600E+05
1268.20	4.88900E+05
1291.51	4.89200E+05
1314.82	4.89700E+05
1338.13	4.90100E+05
1361.43	4.90500E+05
1384.74	4.91000E+05
1408.05	4.77300E+05
1431.36	4.57900E+05
1454.67	4.49800E+05
1477.98	4.50200E+05
1501.29	4.50700E+05
1524.59	4.42700E+05
1547.90	4.30400E+05
1571.21	4.30800E+05
1594.52	4.24100E+05
1617.83	4.10400E+05
1641.14	4.10900E+05
1664.45	4.11300E+05
1687.75	4.11800E+05
1711.06	4.12200E+05
1734.37	4.12600E+05
1757.68	4.13100E+05
1780.99	4.13600E+05
1804.30	4.14000E+05
1827.61	4.14500E+05
1850.92	4.14900E+05
1874.22	4.15300E+05
1897.53	4.15800E+05
1920.84	4.16300E+05
1944.15	4.16700E+05
1967.46	4.17200E+05
1990.77	4.17600E+05
2014.08	4.18000E+05
2037.38	4.18500E+05
2060.69	4.19000E+05
2084.00	4.19500E+05
2107.31	4.19900E+05
2130.62	4.20300E+05
2153.93	4.20600E+05
2177.24	4.21200E+05
2200.54	4.21800E+05
2223.85	4.22200E+05
2247.16	4.22600E+05
2270.47	4.23000E+05
2293.78	4.23500E+05
2317.09	4.23900E+05
2340.40	4.24400E+05
2363.71	4.24800E+05
2387.01	4.25200E+05
2410.32	4.25700E+05
2433.63	4.26200E+05
2456.94	4.01100E+05
2480.25	3.34900E+05
2503.56	2.28900E+05